! Initial file:   C:\Users\santi\Downloads\La2O3junio3.xy
! Initial format:   1
! WAVE (A):      1.54060     1.54060     1.00000
! REM : data have been multiplied by     1.0000
! X_data : 2 Theta (deg.)                                                                                                                                                                                                                                                  
! Y_data : Intensity (arb. units)                                                                                                                                                                                                                                          
!     X         Y
!--------------------------------------------------------------------------------
    10.0234     3819.00000
    10.0497     3775.00000
    10.0760     3890.00000
    10.1022     3829.00000
    10.1285     3764.00000
    10.1547     3811.00000
    10.1810     3894.00000
    10.2073     3752.00000
    10.2335     3827.00000
    10.2598     3784.00000
    10.2860     3791.00000
    10.3123     3734.00000
    10.3386     3708.00000
    10.3648     3703.00000
    10.3911     3680.00000
    10.4173     3752.00000
    10.4436     3709.00000
    10.4699     3764.00000
    10.4961     3666.00000
    10.5224     3637.00000
    10.5486     3648.00000
    10.5749     3762.00000
    10.6012     3688.00000
    10.6274     3581.00000
    10.6537     3610.00000
    10.6799     3551.00000
    10.7062     3683.00000
    10.7325     3643.00000
    10.7587     3622.00000
    10.7850     3558.00000
    10.8112     3535.00000
    10.8375     3674.00000
    10.8638     3630.00000
    10.8900     3591.00000
    10.9163     3486.00000
    10.9425     3441.00000
    10.9688     3484.00000
    10.9951     3487.00000
    11.0213     3531.00000
    11.0476     3494.00000
    11.0739     3552.00000
    11.1001     3455.00000
    11.1264     3414.00000
    11.1526     3399.00000
    11.1789     3399.00000
    11.2052     3502.00000
    11.2314     3379.00000
    11.2577     3449.00000
    11.2839     3457.00000
    11.3102     3455.00000
    11.3365     3319.00000
    11.3627     3266.00000
    11.3890     3347.00000
    11.4152     3443.00000
    11.4415     3514.00000
    11.4678     3166.00000
    11.4940     3300.00000
    11.5203     3224.00000
    11.5465     3264.00000
    11.5728     3294.00000
    11.5991     3252.00000
    11.6253     3247.00000
    11.6516     3247.00000
    11.6778     3235.00000
    11.7041     3231.00000
    11.7304     3224.00000
    11.7566     3289.00000
    11.7829     3183.00000
    11.8091     3160.00000
    11.8354     3230.00000
    11.8617     3262.00000
    11.8879     3156.00000
    11.9142     3199.00000
    11.9405     3137.00000
    11.9667     3135.00000
    11.9930     3094.00000
    12.0192     3138.00000
    12.0455     3099.00000
    12.0718     3183.00000
    12.0980     2964.00000
    12.1243     3193.00000
    12.1505     3076.00000
    12.1768     3001.00000
    12.2031     3077.00000
    12.2293     3015.00000
    12.2556     3013.00000
    12.2818     3111.00000
    12.3081     3084.00000
    12.3344     2974.00000
    12.3606     3081.00000
    12.3869     3075.00000
    12.4131     2940.00000
    12.4394     2924.00000
    12.4657     2891.00000
    12.4919     2815.00000
    12.5182     2961.00000
    12.5444     2973.00000
    12.5707     3048.00000
    12.5970     2957.00000
    12.6232     2928.00000
    12.6495     2892.00000
    12.6757     2939.00000
    12.7020     2933.00000
    12.7283     2923.00000
    12.7545     2873.00000
    12.7808     2843.00000
    12.8070     2781.00000
    12.8333     2875.00000
    12.8596     2878.00000
    12.8858     2833.00000
    12.9121     2883.00000
    12.9384     2803.00000
    12.9646     2896.00000
    12.9909     2739.00000
    13.0171     2793.00000
    13.0434     2790.00000
    13.0697     2708.00000
    13.0959     2925.00000
    13.1222     2721.00000
    13.1484     2645.00000
    13.1747     2866.00000
    13.2010     2648.00000
    13.2272     2692.00000
    13.2535     2722.00000
    13.2797     2706.00000
    13.3060     2663.00000
    13.3323     2726.00000
    13.3585     2664.00000
    13.3848     2600.00000
    13.4110     2610.00000
    13.4373     2734.00000
    13.4636     2549.00000
    13.4898     2638.00000
    13.5161     2588.00000
    13.5423     2550.00000
    13.5686     2587.00000
    13.5949     2568.00000
    13.6211     2608.00000
    13.6474     2617.00000
    13.6736     2553.00000
    13.6999     2719.00000
    13.7262     2531.00000
    13.7524     2589.00000
    13.7787     2501.00000
    13.8050     2496.00000
    13.8312     2577.00000
    13.8575     2524.00000
    13.8837     2602.00000
    13.9100     2548.00000
    13.9363     2573.00000
    13.9625     2535.00000
    13.9888     2644.00000
    14.0150     2515.00000
    14.0413     2467.00000
    14.0676     2513.00000
    14.0938     2375.00000
    14.1201     2553.00000
    14.1463     2557.00000
    14.1726     2477.00000
    14.1989     2441.00000
    14.2251     2493.00000
    14.2514     2455.00000
    14.2776     2422.00000
    14.3039     2281.00000
    14.3302     2449.00000
    14.3564     2511.00000
    14.3827     2371.00000
    14.4089     2435.00000
    14.4352     2381.00000
    14.4615     2293.00000
    14.4877     2329.00000
    14.5140     2330.00000
    14.5402     2493.00000
    14.5665     2481.00000
    14.5928     2293.00000
    14.6190     2363.00000
    14.6453     2319.00000
    14.6716     2380.00000
    14.6978     2307.00000
    14.7241     2452.00000
    14.7503     2411.00000
    14.7766     2259.00000
    14.8029     2401.00000
    14.8291     2296.00000
    14.8554     2314.00000
    14.8816     2485.00000
    14.9079     2344.00000
    14.9342     2423.00000
    14.9604     2376.00000
    14.9867     2275.00000
    15.0129     2420.00000
    15.0392     2435.00000
    15.0655     2379.00000
    15.0917     2380.00000
    15.1180     2305.00000
    15.1442     2582.00000
    15.1705     2652.00000
    15.1968     2639.00000
    15.2230     2571.00000
    15.2493     2674.00000
    15.2755     2871.00000
    15.3018     2953.00000
    15.3281     3039.00000
    15.3543     3147.00000
    15.3806     3466.00000
    15.4068     3734.00000
    15.4331     4111.00000
    15.4594     4606.00000
    15.4856     5082.00000
    15.5119     5875.00000
    15.5381     6721.00000
    15.5644     7667.00000
    15.5907     8888.00000
    15.6169     9656.00000
    15.6432    10105.00000
    15.6695     9839.00000
    15.6957     8668.00000
    15.7220     7525.00000
    15.7482     5989.00000
    15.7745     4856.00000
    15.8008     4159.00000
    15.8270     3732.00000
    15.8533     3213.00000
    15.8795     3027.00000
    15.9058     2821.00000
    15.9321     2589.00000
    15.9583     2565.00000
    15.9846     2541.00000
    16.0108     2388.00000
    16.0371     2285.00000
    16.0634     2373.00000
    16.0896     2287.00000
    16.1159     2252.00000
    16.1421     2253.00000
    16.1684     2249.00000
    16.1947     2161.00000
    16.2209     2214.00000
    16.2472     2205.00000
    16.2734     2171.00000
    16.2997     2158.00000
    16.3260     2061.00000
    16.3522     2083.00000
    16.3785     2007.00000
    16.4047     2094.00000
    16.4310     2005.00000
    16.4573     2049.00000
    16.4835     2016.00000
    16.5098     1937.00000
    16.5361     1973.00000
    16.5623     2057.00000
    16.5886     2003.00000
    16.6148     1936.00000
    16.6411     1880.00000
    16.6674     1907.00000
    16.6936     1911.00000
    16.7199     1983.00000
    16.7461     1963.00000
    16.7724     1937.00000
    16.7987     1872.00000
    16.8249     1912.00000
    16.8512     1871.00000
    16.8774     1897.00000
    16.9037     1902.00000
    16.9300     1910.00000
    16.9562     1930.00000
    16.9825     1934.00000
    17.0087     1829.00000
    17.0350     1829.00000
    17.0613     1886.00000
    17.0875     1953.00000
    17.1138     1746.00000
    17.1400     1848.00000
    17.1663     1827.00000
    17.1926     1808.00000
    17.2188     1848.00000
    17.2451     1816.00000
    17.2713     1764.00000
    17.2976     1872.00000
    17.3239     1800.00000
    17.3501     1744.00000
    17.3764     1803.00000
    17.4026     1765.00000
    17.4289     1841.00000
    17.4552     1791.00000
    17.4814     1803.00000
    17.5077     1843.00000
    17.5340     1798.00000
    17.5602     1817.00000
    17.5865     1818.00000
    17.6127     1796.00000
    17.6390     1893.00000
    17.6653     1751.00000
    17.6915     1782.00000
    17.7178     1801.00000
    17.7440     1855.00000
    17.7703     1782.00000
    17.7966     1781.00000
    17.8228     1848.00000
    17.8491     1818.00000
    17.8753     1736.00000
    17.9016     1726.00000
    17.9279     1718.00000
    17.9541     1722.00000
    17.9804     1824.00000
    18.0066     1722.00000
    18.0329     1765.00000
    18.0592     1699.00000
    18.0854     1789.00000
    18.1117     1619.00000
    18.1379     1584.00000
    18.1642     1667.00000
    18.1905     1716.00000
    18.2167     1612.00000
    18.2430     1666.00000
    18.2692     1706.00000
    18.2955     1640.00000
    18.3218     1675.00000
    18.3480     1660.00000
    18.3743     1656.00000
    18.4006     1625.00000
    18.4268     1675.00000
    18.4531     1662.00000
    18.4793     1603.00000
    18.5056     1595.00000
    18.5319     1750.00000
    18.5581     1629.00000
    18.5844     1623.00000
    18.6106     1554.00000
    18.6369     1562.00000
    18.6632     1601.00000
    18.6894     1546.00000
    18.7157     1592.00000
    18.7419     1635.00000
    18.7682     1493.00000
    18.7945     1626.00000
    18.8207     1560.00000
    18.8470     1593.00000
    18.8732     1589.00000
    18.8995     1561.00000
    18.9258     1530.00000
    18.9520     1608.00000
    18.9783     1626.00000
    19.0045     1608.00000
    19.0308     1501.00000
    19.0571     1536.00000
    19.0833     1557.00000
    19.1096     1527.00000
    19.1358     1567.00000
    19.1621     1559.00000
    19.1884     1514.00000
    19.2146     1588.00000
    19.2409     1511.00000
    19.2671     1545.00000
    19.2934     1641.00000
    19.3197     1539.00000
    19.3459     1523.00000
    19.3722     1566.00000
    19.3985     1626.00000
    19.4247     1429.00000
    19.4510     1504.00000
    19.4772     1482.00000
    19.5035     1591.00000
    19.5298     1513.00000
    19.5560     1494.00000
    19.5823     1490.00000
    19.6085     1542.00000
    19.6348     1479.00000
    19.6611     1411.00000
    19.6873     1514.00000
    19.7136     1495.00000
    19.7398     1506.00000
    19.7661     1495.00000
    19.7924     1466.00000
    19.8186     1491.00000
    19.8449     1453.00000
    19.8711     1486.00000
    19.8974     1485.00000
    19.9237     1459.00000
    19.9499     1475.00000
    19.9762     1511.00000
    20.0024     1451.00000
    20.0287     1524.00000
    20.0550     1398.00000
    20.0812     1449.00000
    20.1075     1550.00000
    20.1337     1392.00000
    20.1600     1440.00000
    20.1863     1408.00000
    20.2125     1428.00000
    20.2388     1432.00000
    20.2651     1395.00000
    20.2913     1401.00000
    20.3176     1460.00000
    20.3438     1504.00000
    20.3701     1453.00000
    20.3964     1445.00000
    20.4226     1441.00000
    20.4489     1420.00000
    20.4751     1459.00000
    20.5014     1440.00000
    20.5277     1346.00000
    20.5539     1420.00000
    20.5802     1412.00000
    20.6064     1425.00000
    20.6327     1423.00000
    20.6590     1454.00000
    20.6852     1376.00000
    20.7115     1384.00000
    20.7377     1361.00000
    20.7640     1436.00000
    20.7903     1361.00000
    20.8165     1333.00000
    20.8428     1377.00000
    20.8690     1395.00000
    20.8953     1414.00000
    20.9216     1360.00000
    20.9478     1402.00000
    20.9741     1343.00000
    21.0003     1357.00000
    21.0266     1383.00000
    21.0529     1366.00000
    21.0791     1353.00000
    21.1054     1402.00000
    21.1316     1417.00000
    21.1579     1317.00000
    21.1842     1329.00000
    21.2104     1395.00000
    21.2367     1312.00000
    21.2630     1333.00000
    21.2892     1366.00000
    21.3155     1423.00000
    21.3417     1329.00000
    21.3680     1274.00000
    21.3943     1327.00000
    21.4205     1385.00000
    21.4468     1374.00000
    21.4730     1332.00000
    21.4993     1325.00000
    21.5256     1345.00000
    21.5518     1314.00000
    21.5781     1342.00000
    21.6043     1260.00000
    21.6306     1297.00000
    21.6569     1309.00000
    21.6831     1378.00000
    21.7094     1297.00000
    21.7356     1270.00000
    21.7619     1281.00000
    21.7882     1322.00000
    21.8144     1350.00000
    21.8407     1335.00000
    21.8669     1262.00000
    21.8932     1250.00000
    21.9195     1266.00000
    21.9457     1250.00000
    21.9720     1268.00000
    21.9982     1304.00000
    22.0245     1264.00000
    22.0508     1321.00000
    22.0770     1272.00000
    22.1033     1308.00000
    22.1296     1306.00000
    22.1558     1321.00000
    22.1821     1333.00000
    22.2083     1294.00000
    22.2346     1345.00000
    22.2609     1327.00000
    22.2871     1367.00000
    22.3134     1288.00000
    22.3396     1311.00000
    22.3659     1327.00000
    22.3922     1285.00000
    22.4184     1251.00000
    22.4447     1262.00000
    22.4709     1218.00000
    22.4972     1320.00000
    22.5235     1202.00000
    22.5497     1326.00000
    22.5760     1166.00000
    22.6022     1252.00000
    22.6285     1243.00000
    22.6548     1244.00000
    22.6810     1231.00000
    22.7073     1287.00000
    22.7335     1261.00000
    22.7598     1242.00000
    22.7861     1177.00000
    22.8123     1185.00000
    22.8386     1178.00000
    22.8648     1190.00000
    22.8911     1257.00000
    22.9174     1208.00000
    22.9436     1239.00000
    22.9699     1221.00000
    22.9961     1147.00000
    23.0224     1175.00000
    23.0487     1239.00000
    23.0749     1157.00000
    23.1012     1173.00000
    23.1275     1185.00000
    23.1537     1148.00000
    23.1800     1185.00000
    23.2062     1166.00000
    23.2325     1187.00000
    23.2588     1137.00000
    23.2850     1230.00000
    23.3113     1194.00000
    23.3375     1190.00000
    23.3638     1218.00000
    23.3901     1168.00000
    23.4163     1146.00000
    23.4426     1177.00000
    23.4688     1184.00000
    23.4951     1184.00000
    23.5214     1226.00000
    23.5476     1154.00000
    23.5739     1218.00000
    23.6001     1187.00000
    23.6264     1234.00000
    23.6527     1196.00000
    23.6789     1114.00000
    23.7052     1124.00000
    23.7314     1118.00000
    23.7577     1164.00000
    23.7840     1152.00000
    23.8102     1147.00000
    23.8365     1161.00000
    23.8627     1099.00000
    23.8890     1117.00000
    23.9153     1295.00000
    23.9415     1120.00000
    23.9678     1168.00000
    23.9941     1178.00000
    24.0203     1189.00000
    24.0466     1189.00000
    24.0728     1155.00000
    24.0991     1145.00000
    24.1254     1198.00000
    24.1516     1141.00000
    24.1779     1194.00000
    24.2041     1206.00000
    24.2304     1212.00000
    24.2567     1177.00000
    24.2829     1276.00000
    24.3092     1295.00000
    24.3354     1342.00000
    24.3617     1205.00000
    24.3880     1278.00000
    24.4142     1300.00000
    24.4405     1266.00000
    24.4667     1201.00000
    24.4930     1156.00000
    24.5193     1174.00000
    24.5455     1154.00000
    24.5718     1220.00000
    24.5980     1135.00000
    24.6243     1085.00000
    24.6506     1211.00000
    24.6768     1117.00000
    24.7031     1144.00000
    24.7293     1167.00000
    24.7556     1063.00000
    24.7819     1160.00000
    24.8081     1117.00000
    24.8344     1123.00000
    24.8606     1070.00000
    24.8869     1072.00000
    24.9132     1084.00000
    24.9394     1126.00000
    24.9657     1128.00000
    24.9920     1090.00000
    25.0182     1139.00000
    25.0445     1122.00000
    25.0707     1088.00000
    25.0970     1134.00000
    25.1233     1129.00000
    25.1495     1155.00000
    25.1758     1126.00000
    25.2020     1137.00000
    25.2283     1122.00000
    25.2546     1133.00000
    25.2808     1109.00000
    25.3071     1162.00000
    25.3333     1074.00000
    25.3596     1066.00000
    25.3859     1101.00000
    25.4121     1021.00000
    25.4384     1120.00000
    25.4646     1087.00000
    25.4909     1077.00000
    25.5172     1009.00000
    25.5434     1068.00000
    25.5697     1086.00000
    25.5959     1023.00000
    25.6222     1114.00000
    25.6485     1065.00000
    25.6747     1055.00000
    25.7010     1161.00000
    25.7272     1057.00000
    25.7535     1107.00000
    25.7798     1114.00000
    25.8060     1172.00000
    25.8323     1140.00000
    25.8586     1151.00000
    25.8848     1151.00000
    25.9111     1039.00000
    25.9373     1135.00000
    25.9636     1035.00000
    25.9899     1053.00000
    26.0161     1072.00000
    26.0424     1056.00000
    26.0686     1107.00000
    26.0949     1011.00000
    26.1212     1051.00000
    26.1474     1097.00000
    26.1737     1076.00000
    26.1999     1040.00000
    26.2262     1065.00000
    26.2525     1047.00000
    26.2787     1081.00000
    26.3050     1121.00000
    26.3312     1107.00000
    26.3575     1058.00000
    26.3838     1088.00000
    26.4100     1158.00000
    26.4363     1092.00000
    26.4625     1053.00000
    26.4888     1124.00000
    26.5151     1117.00000
    26.5413     1102.00000
    26.5676     1156.00000
    26.5938     1168.00000
    26.6201     1114.00000
    26.6464     1218.00000
    26.6726     1144.00000
    26.6989     1190.00000
    26.7251     1160.00000
    26.7514     1242.00000
    26.7777     1213.00000
    26.8039     1252.00000
    26.8302     1287.00000
    26.8565     1259.00000
    26.8827     1349.00000
    26.9090     1467.00000
    26.9352     1504.00000
    26.9615     1739.00000
    26.9878     1723.00000
    27.0140     1912.00000
    27.0403     2180.00000
    27.0665     2417.00000
    27.0928     2675.00000
    27.1191     3103.00000
    27.1453     3568.00000
    27.1716     4237.00000
    27.1978     4716.00000
    27.2241     5469.00000
    27.2504     6229.00000
    27.2766     6332.00000
    27.3029     6375.00000
    27.3291     6309.00000
    27.3554     5706.00000
    27.3817     5100.00000
    27.4079     4458.00000
    27.4342     3772.00000
    27.4604     3363.00000
    27.4867     2981.00000
    27.5130     2704.00000
    27.5392     2463.00000
    27.5655     2319.00000
    27.5917     2270.00000
    27.6180     2333.00000
    27.6443     2298.00000
    27.6705     2362.00000
    27.6968     2633.00000
    27.7231     2823.00000
    27.7493     3115.00000
    27.7756     3545.00000
    27.8018     4128.00000
    27.8281     4940.00000
    27.8544     5923.00000
    27.8806     6855.00000
    27.9069     8059.00000
    27.9331     8777.00000
    27.9594     9360.00000
    27.9857     9231.00000
    28.0119     8746.00000
    28.0382     7681.00000
    28.0644     6605.00000
    28.0907     5497.00000
    28.1170     4523.00000
    28.1432     3691.00000
    28.1695     3073.00000
    28.1957     2648.00000
    28.2220     2246.00000
    28.2483     2006.00000
    28.2745     1865.00000
    28.3008     1663.00000
    28.3270     1580.00000
    28.3533     1538.00000
    28.3796     1412.00000
    28.4058     1352.00000
    28.4321     1260.00000
    28.4583     1225.00000
    28.4846     1191.00000
    28.5109     1212.00000
    28.5371     1144.00000
    28.5634     1079.00000
    28.5896     1075.00000
    28.6159     1116.00000
    28.6422     1070.00000
    28.6684     1039.00000
    28.6947     1123.00000
    28.7210     1076.00000
    28.7472     1063.00000
    28.7735     1063.00000
    28.7997      989.00000
    28.8260      998.00000
    28.8523      999.00000
    28.8785     1022.00000
    28.9048     1010.00000
    28.9310      968.00000
    28.9573     1008.00000
    28.9836     1034.00000
    29.0098      970.00000
    29.0361     1015.00000
    29.0623     1025.00000
    29.0886      901.00000
    29.1149      952.00000
    29.1411      967.00000
    29.1674      979.00000
    29.1936      944.00000
    29.2199      943.00000
    29.2462      949.00000
    29.2724      942.00000
    29.2987      896.00000
    29.3249      885.00000
    29.3512      914.00000
    29.3775      979.00000
    29.4037     1004.00000
    29.4300      928.00000
    29.4562      965.00000
    29.4825      938.00000
    29.5088      932.00000
    29.5350      936.00000
    29.5613      913.00000
    29.5876      917.00000
    29.6138      967.00000
    29.6401      920.00000
    29.6663      915.00000
    29.6926      962.00000
    29.7189      962.00000
    29.7451      921.00000
    29.7714      898.00000
    29.7976      978.00000
    29.8239      899.00000
    29.8502      940.00000
    29.8764      920.00000
    29.9027      928.00000
    29.9289      908.00000
    29.9552      901.00000
    29.9815      889.00000
    30.0077     1023.00000
    30.0340      951.00000
    30.0602      957.00000
    30.0865      996.00000
    30.1128      932.00000
    30.1390      972.00000
    30.1653      990.00000
    30.1915     1045.00000
    30.2178     1109.00000
    30.2441     1137.00000
    30.2703     1114.00000
    30.2966     1134.00000
    30.3228     1222.00000
    30.3491     1182.00000
    30.3754     1163.00000
    30.4016     1163.00000
    30.4279     1025.00000
    30.4541     1036.00000
    30.4804      975.00000
    30.5067      983.00000
    30.5329      937.00000
    30.5592      912.00000
    30.5855      877.00000
    30.6117      897.00000
    30.6380      836.00000
    30.6642      900.00000
    30.6905      901.00000
    30.7168      847.00000
    30.7430      902.00000
    30.7693      853.00000
    30.7955      877.00000
    30.8218      837.00000
    30.8481      900.00000
    30.8743      856.00000
    30.9006      897.00000
    30.9268      855.00000
    30.9531      883.00000
    30.9794      901.00000
    31.0056      884.00000
    31.0319      910.00000
    31.0581      867.00000
    31.0844      847.00000
    31.1107      930.00000
    31.1369      888.00000
    31.1632      944.00000
    31.1894      919.00000
    31.2157      928.00000
    31.2420      943.00000
    31.2682     1003.00000
    31.2945     1002.00000
    31.3207     1046.00000
    31.3470     1036.00000
    31.3733     1079.00000
    31.3995     1164.00000
    31.4258     1223.00000
    31.4521     1316.00000
    31.4783     1484.00000
    31.5046     1599.00000
    31.5308     1729.00000
    31.5571     1808.00000
    31.5834     1904.00000
    31.6096     1990.00000
    31.6359     2028.00000
    31.6621     1887.00000
    31.6884     1717.00000
    31.7147     1653.00000
    31.7409     1537.00000
    31.7672     1398.00000
    31.7934     1214.00000
    31.8197     1209.00000
    31.8460     1070.00000
    31.8722     1061.00000
    31.8985      968.00000
    31.9247      944.00000
    31.9510      926.00000
    31.9773      879.00000
    32.0035      912.00000
    32.0298      922.00000
    32.0560      834.00000
    32.0823      833.00000
    32.1086      827.00000
    32.1348      801.00000
    32.1611      815.00000
    32.1873      808.00000
    32.2136      808.00000
    32.2399      801.00000
    32.2661      841.00000
    32.2924      798.00000
    32.3186      777.00000
    32.3449      843.00000
    32.3712      825.00000
    32.3974      850.00000
    32.4237      771.00000
    32.4500      781.00000
    32.4762      828.00000
    32.5025      787.00000
    32.5287      774.00000
    32.5550      781.00000
    32.5813      775.00000
    32.6075      778.00000
    32.6338      821.00000
    32.6600      744.00000
    32.6863      807.00000
    32.7126      847.00000
    32.7388      742.00000
    32.7651      781.00000
    32.7913      761.00000
    32.8176      728.00000
    32.8439      757.00000
    32.8701      739.00000
    32.8964      720.00000
    32.9226      752.00000
    32.9489      748.00000
    32.9752      769.00000
    33.0014      726.00000
    33.0277      765.00000
    33.0539      743.00000
    33.0802      767.00000
    33.1065      718.00000
    33.1327      757.00000
    33.1590      792.00000
    33.1852      725.00000
    33.2115      719.00000
    33.2378      678.00000
    33.2640      728.00000
    33.2903      737.00000
    33.3166      747.00000
    33.3428      747.00000
    33.3691      742.00000
    33.3953      740.00000
    33.4216      693.00000
    33.4479      736.00000
    33.4741      730.00000
    33.5004      681.00000
    33.5266      779.00000
    33.5529      740.00000
    33.5792      778.00000
    33.6054      759.00000
    33.6317      745.00000
    33.6579      779.00000
    33.6842      787.00000
    33.7105      719.00000
    33.7367      713.00000
    33.7630      718.00000
    33.7892      781.00000
    33.8155      699.00000
    33.8418      755.00000
    33.8680      796.00000
    33.8943      756.00000
    33.9205      773.00000
    33.9468      724.00000
    33.9731      721.00000
    33.9993      780.00000
    34.0256      738.00000
    34.0518      701.00000
    34.0781      694.00000
    34.1044      726.00000
    34.1306      743.00000
    34.1569      770.00000
    34.1832      688.00000
    34.2094      798.00000
    34.2357      689.00000
    34.2619      711.00000
    34.2882      752.00000
    34.3145      718.00000
    34.3407      676.00000
    34.3670      689.00000
    34.3932      679.00000
    34.4195      726.00000
    34.4458      732.00000
    34.4720      721.00000
    34.4983      710.00000
    34.5245      713.00000
    34.5508      700.00000
    34.5771      724.00000
    34.6033      682.00000
    34.6296      674.00000
    34.6558      721.00000
    34.6821      766.00000
    34.7084      778.00000
    34.7346      734.00000
    34.7609      689.00000
    34.7871      680.00000
    34.8134      699.00000
    34.8397      697.00000
    34.8659      721.00000
    34.8922      653.00000
    34.9184      671.00000
    34.9447      695.00000
    34.9710      742.00000
    34.9972      736.00000
    35.0235      670.00000
    35.0497      683.00000
    35.0760      745.00000
    35.1023      725.00000
    35.1285      698.00000
    35.1548      734.00000
    35.1811      658.00000
    35.2073      710.00000
    35.2336      656.00000
    35.2598      674.00000
    35.2861      650.00000
    35.3124      750.00000
    35.3386      717.00000
    35.3649      634.00000
    35.3911      728.00000
    35.4174      723.00000
    35.4437      742.00000
    35.4699      713.00000
    35.4962      696.00000
    35.5224      750.00000
    35.5487      680.00000
    35.5750      719.00000
    35.6012      736.00000
    35.6275      760.00000
    35.6537      780.00000
    35.6800      770.00000
    35.7063      754.00000
    35.7325      798.00000
    35.7588      749.00000
    35.7850      795.00000
    35.8113      880.00000
    35.8376      892.00000
    35.8638      951.00000
    35.8901     1010.00000
    35.9163     1035.00000
    35.9426     1085.00000
    35.9689     1132.00000
    35.9951     1135.00000
    36.0214     1192.00000
    36.0476     1153.00000
    36.0739     1152.00000
    36.1002     1084.00000
    36.1264     1038.00000
    36.1527     1015.00000
    36.1790      856.00000
    36.2052      842.00000
    36.2315      801.00000
    36.2577      750.00000
    36.2840      831.00000
    36.3103      739.00000
    36.3365      687.00000
    36.3628      758.00000
    36.3890      663.00000
    36.4153      739.00000
    36.4416      642.00000
    36.4678      710.00000
    36.4941      649.00000
    36.5203      694.00000
    36.5466      699.00000
    36.5729      669.00000
    36.5991      635.00000
    36.6254      645.00000
    36.6516      650.00000
    36.6779      677.00000
    36.7042      689.00000
    36.7304      657.00000
    36.7567      669.00000
    36.7829      634.00000
    36.8092      713.00000
    36.8355      648.00000
    36.8617      640.00000
    36.8880      663.00000
    36.9142      642.00000
    36.9405      625.00000
    36.9668      705.00000
    36.9930      632.00000
    37.0193      634.00000
    37.0456      688.00000
    37.0718      626.00000
    37.0981      637.00000
    37.1243      665.00000
    37.1506      634.00000
    37.1769      631.00000
    37.2031      621.00000
    37.2294      637.00000
    37.2556      678.00000
    37.2819      640.00000
    37.3082      619.00000
    37.3344      583.00000
    37.3607      630.00000
    37.3869      619.00000
    37.4132      600.00000
    37.4395      617.00000
    37.4657      665.00000
    37.4920      643.00000
    37.5182      656.00000
    37.5445      686.00000
    37.5708      618.00000
    37.5970      671.00000
    37.6233      656.00000
    37.6495      630.00000
    37.6758      651.00000
    37.7021      648.00000
    37.7283      596.00000
    37.7546      602.00000
    37.7808      655.00000
    37.8071      597.00000
    37.8334      620.00000
    37.8596      632.00000
    37.8859      654.00000
    37.9122      639.00000
    37.9384      662.00000
    37.9647      649.00000
    37.9909      614.00000
    38.0172      629.00000
    38.0435      668.00000
    38.0697      677.00000
    38.0960      627.00000
    38.1222      630.00000
    38.1485      651.00000
    38.1748      626.00000
    38.2010      679.00000
    38.2273      693.00000
    38.2535      726.00000
    38.2798      675.00000
    38.3061      652.00000
    38.3323      657.00000
    38.3586      676.00000
    38.3848      675.00000
    38.4111      654.00000
    38.4374      694.00000
    38.4636      636.00000
    38.4899      684.00000
    38.5161      648.00000
    38.5424      680.00000
    38.5687      620.00000
    38.5949      660.00000
    38.6212      719.00000
    38.6474      699.00000
    38.6737      681.00000
    38.7000      727.00000
    38.7262      733.00000
    38.7525      766.00000
    38.7787      752.00000
    38.8050      696.00000
    38.8313      758.00000
    38.8575      737.00000
    38.8838      788.00000
    38.9101      842.00000
    38.9363      808.00000
    38.9626      854.00000
    38.9888      942.00000
    39.0151      946.00000
    39.0414      969.00000
    39.0676     1051.00000
    39.0939     1077.00000
    39.1201     1185.00000
    39.1464     1300.00000
    39.1727     1454.00000
    39.1989     1544.00000
    39.2252     1754.00000
    39.2514     1957.00000
    39.2777     2262.00000
    39.3040     2667.00000
    39.3302     2911.00000
    39.3565     3308.00000
    39.3827     3769.00000
    39.4090     4326.00000
    39.4353     4723.00000
    39.4615     4982.00000
    39.4878     5121.00000
    39.5140     5088.00000
    39.5403     4813.00000
    39.5666     4448.00000
    39.5928     4059.00000
    39.6191     3669.00000
    39.6453     3261.00000
    39.6716     2883.00000
    39.6979     2463.00000
    39.7241     2113.00000
    39.7504     1908.00000
    39.7766     1650.00000
    39.8029     1401.00000
    39.8292     1316.00000
    39.8554     1196.00000
    39.8817     1183.00000
    39.9080     1075.00000
    39.9342     1004.00000
    39.9605      875.00000
    39.9867      913.00000
    40.0130      897.00000
    40.0393      854.00000
    40.0655      842.00000
    40.0918      780.00000
    40.1180      806.00000
    40.1443      730.00000
    40.1706      727.00000
    40.1968      739.00000
    40.2231      706.00000
    40.2493      676.00000
    40.2756      644.00000
    40.3019      696.00000
    40.3281      654.00000
    40.3544      672.00000
    40.3806      683.00000
    40.4069      633.00000
    40.4332      680.00000
    40.4594      675.00000
    40.4857      612.00000
    40.5119      623.00000
    40.5382      640.00000
    40.5645      594.00000
    40.5907      629.00000
    40.6170      632.00000
    40.6432      612.00000
    40.6695      609.00000
    40.6958      590.00000
    40.7220      620.00000
    40.7483      579.00000
    40.7746      618.00000
    40.8008      601.00000
    40.8271      641.00000
    40.8533      652.00000
    40.8796      636.00000
    40.9059      607.00000
    40.9321      592.00000
    40.9584      618.00000
    40.9846      559.00000
    41.0109      683.00000
    41.0372      545.00000
    41.0634      601.00000
    41.0897      592.00000
    41.1159      622.00000
    41.1422      616.00000
    41.1685      580.00000
    41.1947      591.00000
    41.2210      618.00000
    41.2472      610.00000
    41.2735      612.00000
    41.2998      575.00000
    41.3260      587.00000
    41.3523      606.00000
    41.3785      630.00000
    41.4048      637.00000
    41.4311      590.00000
    41.4573      598.00000
    41.4836      605.00000
    41.5098      638.00000
    41.5361      595.00000
    41.5624      587.00000
    41.5886      637.00000
    41.6149      618.00000
    41.6412      598.00000
    41.6674      658.00000
    41.6937      593.00000
    41.7199      607.00000
    41.7462      675.00000
    41.7725      608.00000
    41.7987      668.00000
    41.8250      625.00000
    41.8512      666.00000
    41.8775      654.00000
    41.9038      649.00000
    41.9300      716.00000
    41.9563      725.00000
    41.9825      742.00000
    42.0088      789.00000
    42.0351      798.00000
    42.0613      868.00000
    42.0876      923.00000
    42.1138     1011.00000
    42.1401     1098.00000
    42.1664     1090.00000
    42.1926     1195.00000
    42.2189     1172.00000
    42.2451     1258.00000
    42.2714     1309.00000
    42.2977     1274.00000
    42.3239     1220.00000
    42.3502     1150.00000
    42.3764     1120.00000
    42.4027     1048.00000
    42.4290      968.00000
    42.4552      929.00000
    42.4815      885.00000
    42.5077      821.00000
    42.5340      854.00000
    42.5603      767.00000
    42.5865      709.00000
    42.6128      671.00000
    42.6391      676.00000
    42.6653      674.00000
    42.6916      643.00000
    42.7178      645.00000
    42.7441      689.00000
    42.7704      618.00000
    42.7966      672.00000
    42.8229      684.00000
    42.8491      635.00000
    42.8754      698.00000
    42.9017      641.00000
    42.9279      702.00000
    42.9542      641.00000
    42.9804      687.00000
    43.0067      596.00000
    43.0330      639.00000
    43.0592      602.00000
    43.0855      612.00000
    43.1117      553.00000
    43.1380      601.00000
    43.1643      596.00000
    43.1905      585.00000
    43.2168      538.00000
    43.2430      602.00000
    43.2693      583.00000
    43.2956      597.00000
    43.3218      575.00000
    43.3481      555.00000
    43.3743      562.00000
    43.4006      582.00000
    43.4269      595.00000
    43.4531      576.00000
    43.4794      602.00000
    43.5056      555.00000
    43.5319      582.00000
    43.5582      605.00000
    43.5844      586.00000
    43.6107      582.00000
    43.6370      569.00000
    43.6632      556.00000
    43.6895      598.00000
    43.7157      603.00000
    43.7420      606.00000
    43.7683      622.00000
    43.7945      637.00000
    43.8208      699.00000
    43.8470      600.00000
    43.8733      635.00000
    43.8996      638.00000
    43.9258      624.00000
    43.9521      612.00000
    43.9783      585.00000
    44.0046      559.00000
    44.0309      593.00000
    44.0571      594.00000
    44.0834      561.00000
    44.1096      566.00000
    44.1359      555.00000
    44.1622      563.00000
    44.1884      569.00000
    44.2147      542.00000
    44.2409      538.00000
    44.2672      586.00000
    44.2935      549.00000
    44.3197      549.00000
    44.3460      610.00000
    44.3722      587.00000
    44.3985      561.00000
    44.4248      629.00000
    44.4510      544.00000
    44.4773      566.00000
    44.5036      571.00000
    44.5298      562.00000
    44.5561      566.00000
    44.5823      534.00000
    44.6086      597.00000
    44.6349      563.00000
    44.6611      504.00000
    44.6874      543.00000
    44.7136      538.00000
    44.7399      552.00000
    44.7662      508.00000
    44.7924      549.00000
    44.8187      548.00000
    44.8449      515.00000
    44.8712      550.00000
    44.8975      546.00000
    44.9237      557.00000
    44.9500      561.00000
    44.9762      529.00000
    45.0025      524.00000
    45.0288      555.00000
    45.0550      490.00000
    45.0813      545.00000
    45.1075      526.00000
    45.1338      536.00000
    45.1601      532.00000
    45.1863      489.00000
    45.2126      566.00000
    45.2388      521.00000
    45.2651      581.00000
    45.2914      477.00000
    45.3176      506.00000
    45.3439      531.00000
    45.3702      553.00000
    45.3964      527.00000
    45.4227      563.00000
    45.4489      524.00000
    45.4752      520.00000
    45.5015      568.00000
    45.5277      552.00000
    45.5540      551.00000
    45.5802      521.00000
    45.6065      535.00000
    45.6328      464.00000
    45.6590      516.00000
    45.6853      546.00000
    45.7115      512.00000
    45.7378      539.00000
    45.7641      513.00000
    45.7903      538.00000
    45.8166      572.00000
    45.8428      512.00000
    45.8691      562.00000
    45.8954      524.00000
    45.9216      542.00000
    45.9479      560.00000
    45.9741      536.00000
    46.0004      546.00000
    46.0267      559.00000
    46.0529      540.00000
    46.0792      572.00000
    46.1054      556.00000
    46.1317      520.00000
    46.1580      517.00000
    46.1842      566.00000
    46.2105      540.00000
    46.2367      511.00000
    46.2630      508.00000
    46.2893      559.00000
    46.3155      592.00000
    46.3418      513.00000
    46.3681      539.00000
    46.3943      530.00000
    46.4206      560.00000
    46.4468      576.00000
    46.4731      581.00000
    46.4994      571.00000
    46.5256      607.00000
    46.5519      553.00000
    46.5781      579.00000
    46.6044      590.00000
    46.6307      638.00000
    46.6569      672.00000
    46.6832      678.00000
    46.7094      710.00000
    46.7357      713.00000
    46.7620      726.00000
    46.7882      762.00000
    46.8145      793.00000
    46.8407      849.00000
    46.8670      862.00000
    46.8933      918.00000
    46.9195      977.00000
    46.9458     1139.00000
    46.9720     1134.00000
    46.9983     1256.00000
    47.0246     1347.00000
    47.0508     1439.00000
    47.0771     1436.00000
    47.1033     1365.00000
    47.1296     1310.00000
    47.1559     1257.00000
    47.1821     1226.00000
    47.2084     1134.00000
    47.2346     1075.00000
    47.2609      969.00000
    47.2872      934.00000
    47.3134      859.00000
    47.3397      826.00000
    47.3660      769.00000
    47.3922      752.00000
    47.4185      740.00000
    47.4447      754.00000
    47.4710      712.00000
    47.4973      758.00000
    47.5235      718.00000
    47.5498      712.00000
    47.5760      759.00000
    47.6023      719.00000
    47.6286      686.00000
    47.6548      703.00000
    47.6811      657.00000
    47.7073      723.00000
    47.7336      781.00000
    47.7599      732.00000
    47.7861      806.00000
    47.8124      793.00000
    47.8386      836.00000
    47.8649      823.00000
    47.8912      894.00000
    47.9174      978.00000
    47.9437     1014.00000
    47.9699     1088.00000
    47.9962     1149.00000
    48.0225     1221.00000
    48.0487     1323.00000
    48.0750     1496.00000
    48.1012     1506.00000
    48.1275     1721.00000
    48.1538     1843.00000
    48.1800     2013.00000
    48.2063     2151.00000
    48.2326     2242.00000
    48.2588     2271.00000
    48.2851     2336.00000
    48.3113     2408.00000
    48.3376     2484.00000
    48.3639     2515.00000
    48.3901     2499.00000
    48.4164     2514.00000
    48.4426     2619.00000
    48.4689     2779.00000
    48.4952     2861.00000
    48.5214     3033.00000
    48.5477     3282.00000
    48.5739     3434.00000
    48.6002     3764.00000
    48.6265     3864.00000
    48.6527     3876.00000
    48.6790     3997.00000
    48.7052     3852.00000
    48.7315     3672.00000
    48.7578     3474.00000
    48.7840     3358.00000
    48.8103     3121.00000
    48.8365     2799.00000
    48.8628     2594.00000
    48.8891     2378.00000
    48.9153     2032.00000
    48.9416     1824.00000
    48.9678     1600.00000
    48.9941     1461.00000
    49.0204     1419.00000
    49.0466     1220.00000
    49.0729     1131.00000
    49.0992     1107.00000
    49.1254     1038.00000
    49.1517      944.00000
    49.1779      919.00000
    49.2042      845.00000
    49.2305      839.00000
    49.2567      802.00000
    49.2830      772.00000
    49.3092      734.00000
    49.3355      735.00000
    49.3618      732.00000
    49.3880      677.00000
    49.4143      689.00000
    49.4405      688.00000
    49.4668      677.00000
    49.4931      640.00000
    49.5193      652.00000
    49.5456      696.00000
    49.5718      699.00000
    49.5981      693.00000
    49.6244      677.00000
    49.6506      709.00000
    49.6769      762.00000
    49.7031      747.00000
    49.7294      804.00000
    49.7557      766.00000
    49.7819      906.00000
    49.8082      939.00000
    49.8344      992.00000
    49.8607      973.00000
    49.8870     1081.00000
    49.9132     1077.00000
    49.9395     1032.00000
    49.9657     1026.00000
    49.9920      926.00000
    50.0183      980.00000
    50.0445      856.00000
    50.0708      875.00000
    50.0971      856.00000
    50.1233      772.00000
    50.1496      787.00000
    50.1758      727.00000
    50.2021      703.00000
    50.2284      655.00000
    50.2546      661.00000
    50.2809      615.00000
    50.3071      606.00000
    50.3334      572.00000
    50.3597      571.00000
    50.3859      554.00000
    50.4122      550.00000
    50.4384      561.00000
    50.4647      521.00000
    50.4910      514.00000
    50.5172      561.00000
    50.5435      472.00000
    50.5697      434.00000
    50.5960      508.00000
    50.6223      476.00000
    50.6485      532.00000
    50.6748      513.00000
    50.7010      490.00000
    50.7273      493.00000
    50.7536      477.00000
    50.7798      486.00000
    50.8061      504.00000
    50.8323      484.00000
    50.8586      503.00000
    50.8849      483.00000
    50.9111      521.00000
    50.9374      494.00000
    50.9636      495.00000
    50.9899      480.00000
    51.0162      474.00000
    51.0424      467.00000
    51.0687      482.00000
    51.0950      536.00000
    51.1212      464.00000
    51.1475      504.00000
    51.1737      455.00000
    51.2000      464.00000
    51.2263      469.00000
    51.2525      508.00000
    51.2788      466.00000
    51.3050      485.00000
    51.3313      450.00000
    51.3576      453.00000
    51.3838      473.00000
    51.4101      453.00000
    51.4363      487.00000
    51.4626      466.00000
    51.4889      515.00000
    51.5151      441.00000
    51.5414      456.00000
    51.5676      434.00000
    51.5939      451.00000
    51.6202      440.00000
    51.6464      463.00000
    51.6727      441.00000
    51.6989      499.00000
    51.7252      405.00000
    51.7515      473.00000
    51.7777      502.00000
    51.8040      445.00000
    51.8302      421.00000
    51.8565      433.00000
    51.8828      487.00000
    51.9090      437.00000
    51.9353      400.00000
    51.9616      431.00000
    51.9878      429.00000
    52.0141      464.00000
    52.0403      463.00000
    52.0666      496.00000
    52.0929      423.00000
    52.1191      438.00000
    52.1454      461.00000
    52.1716      470.00000
    52.1979      472.00000
    52.2242      435.00000
    52.2504      394.00000
    52.2767      391.00000
    52.3029      455.00000
    52.3292      403.00000
    52.3555      438.00000
    52.3817      458.00000
    52.4080      502.00000
    52.4342      407.00000
    52.4605      431.00000
    52.4868      450.00000
    52.5130      404.00000
    52.5393      532.00000
    52.5655      429.00000
    52.5918      407.00000
    52.6181      416.00000
    52.6443      435.00000
    52.6706      446.00000
    52.6968      435.00000
    52.7231      443.00000
    52.7494      414.00000
    52.7756      426.00000
    52.8019      459.00000
    52.8282      456.00000
    52.8544      412.00000
    52.8807      425.00000
    52.9069      437.00000
    52.9332      461.00000
    52.9595      415.00000
    52.9857      422.00000
    53.0120      429.00000
    53.0382      439.00000
    53.0645      445.00000
    53.0908      467.00000
    53.1170      452.00000
    53.1433      421.00000
    53.1695      438.00000
    53.1958      455.00000
    53.2221      468.00000
    53.2483      444.00000
    53.2746      460.00000
    53.3008      445.00000
    53.3271      435.00000
    53.3534      431.00000
    53.3796      421.00000
    53.4059      481.00000
    53.4321      502.00000
    53.4584      435.00000
    53.4847      512.00000
    53.5109      481.00000
    53.5372      443.00000
    53.5634      428.00000
    53.5897      465.00000
    53.6160      419.00000
    53.6422      414.00000
    53.6685      448.00000
    53.6948      420.00000
    53.7210      452.00000
    53.7473      429.00000
    53.7735      436.00000
    53.7998      457.00000
    53.8261      389.00000
    53.8523      463.00000
    53.8786      447.00000
    53.9048      449.00000
    53.9311      422.00000
    53.9574      418.00000
    53.9836      419.00000
    54.0099      406.00000
    54.0361      445.00000
    54.0624      443.00000
    54.0887      408.00000
    54.1149      408.00000
    54.1412      456.00000
    54.1674      411.00000
    54.1937      453.00000
    54.2200      445.00000
    54.2462      448.00000
    54.2725      474.00000
    54.2987      480.00000
    54.3250      448.00000
    54.3513      419.00000
    54.3775      425.00000
    54.4038      437.00000
    54.4300      395.00000
    54.4563      425.00000
    54.4826      490.00000
    54.5088      434.00000
    54.5351      462.00000
    54.5613      468.00000
    54.5876      495.00000
    54.6139      432.00000
    54.6401      495.00000
    54.6664      471.00000
    54.6926      548.00000
    54.7189      551.00000
    54.7452      468.00000
    54.7714      544.00000
    54.7977      500.00000
    54.8240      545.00000
    54.8502      609.00000
    54.8765      642.00000
    54.9027      593.00000
    54.9290      646.00000
    54.9553      684.00000
    54.9815      706.00000
    55.0078      808.00000
    55.0340      755.00000
    55.0603      889.00000
    55.0866      954.00000
    55.1128     1021.00000
    55.1391     1149.00000
    55.1653     1238.00000
    55.1916     1334.00000
    55.2179     1345.00000
    55.2441     1461.00000
    55.2704     1384.00000
    55.2966     1429.00000
    55.3229     1423.00000
    55.3492     1372.00000
    55.3754     1331.00000
    55.4017     1240.00000
    55.4279     1214.00000
    55.4542     1118.00000
    55.4805     1055.00000
    55.5067      957.00000
    55.5330      817.00000
    55.5592      829.00000
    55.5855      792.00000
    55.6118      704.00000
    55.6380      674.00000
    55.6643      666.00000
    55.6906      605.00000
    55.7168      671.00000
    55.7431      574.00000
    55.7693      577.00000
    55.7956      591.00000
    55.8219      533.00000
    55.8481      545.00000
    55.8744      587.00000
    55.9006      525.00000
    55.9269      563.00000
    55.9532      525.00000
    55.9794      543.00000
    56.0057      565.00000
    56.0319      608.00000
    56.0582      612.00000
    56.0845      673.00000
    56.1107      660.00000
    56.1370      682.00000
    56.1632      749.00000
    56.1895      672.00000
    56.2158      838.00000
    56.2420      838.00000
    56.2683      903.00000
    56.2945      934.00000
    56.3208      915.00000
    56.3471      872.00000
    56.3733      905.00000
    56.3996      841.00000
    56.4258      785.00000
    56.4521      862.00000
    56.4784      749.00000
    56.5046      811.00000
    56.5309      738.00000
    56.5572      746.00000
    56.5834      607.00000
    56.6097      590.00000
    56.6359      652.00000
    56.6622      561.00000
    56.6885      587.00000
    56.7147      577.00000
    56.7410      552.00000
    56.7672      585.00000
    56.7935      561.00000
    56.8198      531.00000
    56.8460      563.00000
    56.8723      552.00000
    56.8985      525.00000
    56.9248      541.00000
    56.9511      544.00000
    56.9773      530.00000
    57.0036      490.00000
    57.0298      496.00000
    57.0561      476.00000
    57.0824      468.00000
    57.1086      484.00000
    57.1349      487.00000
    57.1611      465.00000
    57.1874      443.00000
    57.2137      451.00000
    57.2399      472.00000
    57.2662      437.00000
    57.2924      472.00000
    57.3187      488.00000
    57.3450      462.00000
    57.3712      495.00000
    57.3975      473.00000
    57.4238      509.00000
    57.4500      453.00000
    57.4763      488.00000
    57.5025      493.00000
    57.5288      480.00000
    57.5551      503.00000
    57.5813      517.00000
    57.6076      564.00000
    57.6338      601.00000
    57.6601      595.00000
    57.6864      609.00000
    57.7126      630.00000
    57.7389      626.00000
    57.7651      644.00000
    57.7914      708.00000
    57.8177      681.00000
    57.8439      650.00000
    57.8702      700.00000
    57.8964      709.00000
    57.9227      673.00000
    57.9490      654.00000
    57.9752      617.00000
    58.0015      596.00000
    58.0277      571.00000
    58.0540      561.00000
    58.0803      566.00000
    58.1065      548.00000
    58.1328      511.00000
    58.1590      458.00000
    58.1853      544.00000
    58.2116      475.00000
    58.2378      432.00000
    58.2641      463.00000
    58.2903      512.00000
    58.3166      507.00000
    58.3429      488.00000
    58.3691      450.00000
    58.3954      452.00000
    58.4216      462.00000
    58.4479      470.00000
    58.4742      484.00000
    58.5004      417.00000
    58.5267      465.00000
    58.5530      537.00000
    58.5792      503.00000
    58.6055      494.00000
    58.6317      507.00000
    58.6580      532.00000
    58.6843      591.00000
    58.7105      536.00000
    58.7368      549.00000
    58.7630      631.00000
    58.7893      607.00000
    58.8156      624.00000
    58.8418      664.00000
    58.8681      632.00000
    58.8943      618.00000
    58.9206      613.00000
    58.9469      624.00000
    58.9731      610.00000
    58.9994      561.00000
    59.0256      550.00000
    59.0519      526.00000
    59.0782      489.00000
    59.1044      520.00000
    59.1307      481.00000
    59.1569      536.00000
    59.1832      473.00000
    59.2095      470.00000
    59.2357      463.00000
    59.2620      434.00000
    59.2882      398.00000
    59.3145      438.00000
    59.3408      463.00000
    59.3670      460.00000
    59.3933      453.00000
    59.4196      407.00000
    59.4458      418.00000
    59.4721      399.00000
    59.4983      379.00000
    59.5246      428.00000
    59.5509      383.00000
    59.5771      407.00000
    59.6034      412.00000
    59.6296      431.00000
    59.6559      355.00000
    59.6822      427.00000
    59.7084      424.00000
    59.7347      437.00000
    59.7609      428.00000
    59.7872      404.00000
    59.8135      407.00000
    59.8397      410.00000
    59.8660      373.00000
    59.8922      390.00000
    59.9185      371.00000
    59.9448      377.00000
    59.9710      386.00000
    59.9973      416.00000
    60.0235      382.00000
    60.0498      355.00000
    60.0761      379.00000
    60.1023      414.00000
    60.1286      339.00000
    60.1549      388.00000
    60.1811      358.00000
    60.2074      371.00000
    60.2336      414.00000
    60.2599      410.00000
    60.2862      362.00000
    60.3124      373.00000
    60.3387      400.00000
    60.3649      380.00000
    60.3912      370.00000
    60.4175      390.00000
    60.4437      347.00000
    60.4700      412.00000
    60.4962      381.00000
    60.5225      375.00000
    60.5488      367.00000
    60.5750      366.00000
    60.6013      394.00000
    60.6275      397.00000
    60.6538      371.00000
    60.6801      381.00000
    60.7063      353.00000
    60.7326      425.00000
    60.7588      380.00000
    60.7851      371.00000
    60.8114      379.00000
    60.8376      363.00000
    60.8639      382.00000
    60.8901      407.00000
    60.9164      382.00000
    60.9427      381.00000
    60.9689      364.00000
    60.9952      380.00000
    61.0214      431.00000
    61.0477      392.00000
    61.0740      358.00000
    61.1002      355.00000
    61.1265      376.00000
    61.1528      389.00000
    61.1790      344.00000
    61.2053      387.00000
    61.2315      390.00000
    61.2578      399.00000
    61.2841      410.00000
    61.3103      372.00000
    61.3366      362.00000
    61.3628      416.00000
    61.3891      383.00000
    61.4154      388.00000
    61.4416      419.00000
    61.4679      362.00000
    61.4941      389.00000
    61.5204      390.00000
    61.5467      393.00000
    61.5729      387.00000
    61.5992      345.00000
    61.6254      365.00000
    61.6517      366.00000
    61.6780      370.00000
    61.7042      444.00000
    61.7305      397.00000
    61.7567      408.00000
    61.7830      381.00000
    61.8093      378.00000
    61.8355      344.00000
    61.8618      346.00000
    61.8880      404.00000
    61.9143      376.00000
    61.9406      367.00000
    61.9668      377.00000
    61.9931      421.00000
    62.0193      351.00000
    62.0456      378.00000
    62.0719      397.00000
    62.0981      382.00000
    62.1244      388.00000
    62.1507      352.00000
    62.1769      417.00000
    62.2032      395.00000
    62.2294      361.00000
    62.2557      398.00000
    62.2820      346.00000
    62.3082      394.00000
    62.3345      383.00000
    62.3607      422.00000
    62.3870      388.00000
    62.4133      357.00000
    62.4395      409.00000
    62.4658      353.00000
    62.4920      373.00000
    62.5183      380.00000
    62.5446      396.00000
    62.5708      403.00000
    62.5971      358.00000
    62.6233      394.00000
    62.6496      398.00000
    62.6759      397.00000
    62.7021      368.00000
    62.7284      347.00000
    62.7546      388.00000
    62.7809      374.00000
    62.8072      408.00000
    62.8334      405.00000
    62.8597      385.00000
    62.8859      383.00000
    62.9122      393.00000
    62.9385      411.00000
    62.9647      414.00000
    62.9910      423.00000
    63.0173      383.00000
    63.0435      386.00000
    63.0698      403.00000
    63.0960      403.00000
    63.1223      430.00000
    63.1486      409.00000
    63.1748      427.00000
    63.2011      407.00000
    63.2273      389.00000
    63.2536      455.00000
    63.2799      416.00000
    63.3061      429.00000
    63.3324      448.00000
    63.3586      390.00000
    63.3849      434.00000
    63.4112      430.00000
    63.4374      484.00000
    63.4637      435.00000
    63.4899      476.00000
    63.5162      463.00000
    63.5425      483.00000
    63.5687      525.00000
    63.5950      534.00000
    63.6212      536.00000
    63.6475      581.00000
    63.6738      568.00000
    63.7000      633.00000
    63.7263      649.00000
    63.7525      674.00000
    63.7788      676.00000
    63.8051      717.00000
    63.8313      775.00000
    63.8576      793.00000
    63.8839      882.00000
    63.9101      900.00000
    63.9364      944.00000
    63.9626     1024.00000
    63.9889     1028.00000
    64.0152     1050.00000
    64.0414     1127.00000
    64.0677     1087.00000
    64.0939     1032.00000
    64.1202     1051.00000
    64.1465     1009.00000
    64.1727     1000.00000
    64.1990      995.00000
    64.2252      907.00000
    64.2515      907.00000
    64.2778      821.00000
    64.3040      844.00000
    64.3303      785.00000
    64.3565      748.00000
    64.3828      736.00000
    64.4091      638.00000
    64.4353      666.00000
    64.4616      620.00000
    64.4878      572.00000
    64.5141      592.00000
    64.5404      578.00000
    64.5666      547.00000
    64.5929      579.00000
    64.6191      505.00000
    64.6454      553.00000
    64.6717      497.00000
    64.6979      473.00000
    64.7242      522.00000
    64.7505      540.00000
    64.7767      523.00000
    64.8030      550.00000
    64.8292      520.00000
    64.8555      589.00000
    64.8818      603.00000
    64.9080      555.00000
    64.9343      588.00000
    64.9605      571.00000
    64.9868      613.00000
    65.0131      689.00000
    65.0393      649.00000
    65.0656      616.00000
    65.0918      630.00000
    65.1181      666.00000
    65.1444      639.00000
    65.1706      627.00000
    65.1969      611.00000
    65.2231      558.00000
    65.2494      594.00000
    65.2757      552.00000
    65.3019      539.00000
    65.3282      578.00000
    65.3544      518.00000
    65.3807      507.00000
    65.4070      534.00000
    65.4332      544.00000
    65.4595      523.00000
    65.4857      429.00000
    65.5120      435.00000
    65.5383      490.00000
    65.5645      447.00000
    65.5908      450.00000
    65.6171      435.00000
    65.6433      413.00000
    65.6696      431.00000
    65.6958      440.00000
    65.7221      440.00000
    65.7484      368.00000
    65.7746      411.00000
    65.8009      442.00000
    65.8271      400.00000
    65.8534      432.00000
    65.8797      407.00000
    65.9059      447.00000
    65.9322      453.00000
    65.9584      449.00000
    65.9847      414.00000
    66.0110      455.00000
    66.0372      415.00000
    66.0635      441.00000
    66.0897      443.00000
    66.1160      472.00000
    66.1423      467.00000
    66.1685      445.00000
    66.1948      401.00000
    66.2210      423.00000
    66.2473      424.00000
    66.2736      460.00000
    66.2998      430.00000
    66.3261      371.00000
    66.3523      371.00000
    66.3786      428.00000
    66.4049      449.00000
    66.4311      393.00000
    66.4574      425.00000
    66.4836      413.00000
    66.5099      360.00000
    66.5362      387.00000
    66.5624      396.00000
    66.5887      366.00000
    66.6149      388.00000
    66.6412      379.00000
    66.6675      334.00000
    66.6937      380.00000
    66.7200      356.00000
    66.7463      380.00000
    66.7725      343.00000
    66.7988      324.00000
    66.8250      356.00000
    66.8513      381.00000
    66.8776      378.00000
    66.9038      330.00000
    66.9301      364.00000
    66.9563      359.00000
    66.9826      324.00000
    67.0089      336.00000
    67.0351      358.00000
    67.0614      348.00000
    67.0876      352.00000
    67.1139      327.00000
    67.1402      385.00000
    67.1664      333.00000
    67.1927      387.00000
    67.2189      335.00000
    67.2452      396.00000
    67.2715      396.00000
    67.2977      351.00000
    67.3240      354.00000
    67.3502      365.00000
    67.3765      359.00000
    67.4028      384.00000
    67.4290      332.00000
    67.4553      388.00000
    67.4815      361.00000
    67.5078      375.00000
    67.5341      400.00000
    67.5603      375.00000
    67.5866      344.00000
    67.6128      340.00000
    67.6391      362.00000
    67.6654      354.00000
    67.6916      343.00000
    67.7179      393.00000
    67.7442      374.00000
    67.7704      331.00000
    67.7967      360.00000
    67.8229      346.00000
    67.8492      370.00000
    67.8755      384.00000
    67.9017      367.00000
    67.9280      379.00000
    67.9542      380.00000
    67.9805      377.00000
    68.0068      384.00000
    68.0330      409.00000
    68.0593      396.00000
    68.0855      410.00000
    68.1118      384.00000
    68.1381      359.00000
    68.1643      376.00000
    68.1906      348.00000
    68.2168      392.00000
    68.2431      370.00000
    68.2694      362.00000
    68.2956      389.00000
    68.3219      361.00000
    68.3481      359.00000
    68.3744      360.00000
    68.4007      363.00000
    68.4269      384.00000
    68.4532      385.00000
    68.4794      360.00000
    68.5057      365.00000
    68.5320      374.00000
    68.5582      391.00000
    68.5845      366.00000
    68.6107      421.00000
    68.6370      363.00000
    68.6633      379.00000
    68.6895      389.00000
    68.7158      392.00000
    68.7421      335.00000
    68.7683      359.00000
    68.7946      370.00000
    68.8208      348.00000
    68.8471      410.00000
    68.8734      371.00000
    68.8996      420.00000
    68.9259      423.00000
    68.9521      393.00000
    68.9784      421.00000
    69.0047      415.00000
    69.0309      401.00000
    69.0572      435.00000
    69.0834      433.00000
    69.1097      437.00000
    69.1360      401.00000
    69.1622      421.00000
    69.1885      480.00000
    69.2147      483.00000
    69.2410      485.00000
    69.2673      474.00000
    69.2935      503.00000
    69.3198      517.00000
    69.3460      546.00000
    69.3723      572.00000
    69.3986      575.00000
    69.4248      641.00000
    69.4511      682.00000
    69.4773      696.00000
    69.5036      688.00000
    69.5299      734.00000
    69.5561      744.00000
    69.5824      835.00000
    69.6087      899.00000
    69.6349      850.00000
    69.6612      928.00000
    69.6874      890.00000
    69.7137      959.00000
    69.7400      921.00000
    69.7662      895.00000
    69.7925      902.00000
    69.8187      874.00000
    69.8450      860.00000
    69.8713      888.00000
    69.8975      767.00000
    69.9238      748.00000
    69.9500      730.00000
    69.9763      713.00000
    70.0026      626.00000
    70.0288      672.00000
    70.0551      595.00000
    70.0813      609.00000
    70.1076      552.00000
    70.1339      545.00000
    70.1601      515.00000
    70.1864      511.00000
    70.2126      477.00000
    70.2389      467.00000
    70.2652      490.00000
    70.2914      475.00000
    70.3177      510.00000
    70.3439      478.00000
    70.3702      465.00000
    70.3965      470.00000
    70.4227      426.00000
    70.4490      450.00000
    70.4753      438.00000
    70.5015      440.00000
    70.5278      421.00000
    70.5540      443.00000
    70.5803      503.00000
    70.6066      477.00000
    70.6328      473.00000
    70.6591      445.00000
    70.6853      459.00000
    70.7116      474.00000
    70.7379      560.00000
    70.7641      481.00000
    70.7904      503.00000
    70.8166      511.00000
    70.8429      532.00000
    70.8692      530.00000
    70.8954      529.00000
    70.9217      577.00000
    70.9479      492.00000
    70.9742      547.00000
    71.0005      544.00000
    71.0267      578.00000
    71.0530      543.00000
    71.0792      550.00000
    71.1055      512.00000
    71.1318      548.00000
    71.1580      521.00000
    71.1843      495.00000
    71.2105      513.00000
    71.2368      458.00000
    71.2631      463.00000
    71.2893      444.00000
    71.3156      422.00000
    71.3419      441.00000
    71.3681      400.00000
    71.3944      446.00000
    71.4206      400.00000
    71.4469      425.00000
    71.4732      399.00000
    71.4994      412.00000
    71.5257      408.00000
    71.5519      423.00000
    71.5782      391.00000
    71.6045      413.00000
    71.6307      386.00000
    71.6570      355.00000
    71.6832      363.00000
    71.7095      369.00000
    71.7358      395.00000
    71.7620      386.00000
    71.7883      345.00000
    71.8145      383.00000
    71.8408      373.00000
    71.8671      394.00000
    71.8933      369.00000
    71.9196      377.00000
    71.9458      407.00000
    71.9721      369.00000
    71.9984      378.00000
    72.0246      345.00000
    72.0509      367.00000
    72.0771      378.00000
    72.1034      357.00000
    72.1297      371.00000
    72.1559      410.00000
    72.1822      379.00000
    72.2085      365.00000
    72.2347      364.00000
    72.2610      377.00000
    72.2872      375.00000
    72.3135      379.00000
    72.3398      359.00000
    72.3660      373.00000
    72.3923      351.00000
    72.4185      407.00000
    72.4448      395.00000
    72.4711      394.00000
    72.4973      397.00000
    72.5236      367.00000
    72.5498      366.00000
    72.5761      421.00000
    72.6024      377.00000
    72.6286      399.00000
    72.6549      402.00000
    72.6811      400.00000
    72.7074      397.00000
    72.7337      429.00000
    72.7599      395.00000
    72.7862      381.00000
    72.8124      429.00000
    72.8387      438.00000
    72.8650      440.00000
    72.8912      430.00000
    72.9175      386.00000
    72.9437      451.00000
    72.9700      397.00000
    72.9963      428.00000
    73.0225      395.00000
    73.0488      433.00000
    73.0751      405.00000
    73.1013      423.00000
    73.1276      407.00000
    73.1538      393.00000
    73.1801      403.00000
    73.2064      388.00000
    73.2326      383.00000
    73.2589      367.00000
    73.2851      405.00000
    73.3114      361.00000
    73.3377      402.00000
    73.3639      400.00000
    73.3902      371.00000
    73.4164      392.00000
    73.4427      362.00000
    73.4690      334.00000
    73.4952      367.00000
    73.5215      388.00000
    73.5477      359.00000
    73.5740      378.00000
    73.6003      359.00000
    73.6265      363.00000
    73.6528      374.00000
    73.6790      324.00000
    73.7053      384.00000
    73.7316      374.00000
    73.7578      343.00000
    73.7841      388.00000
    73.8103      322.00000
    73.8366      317.00000
    73.8629      361.00000
    73.8891      341.00000
    73.9154      344.00000
    73.9416      371.00000
    73.9679      355.00000
    73.9942      356.00000
    74.0204      374.00000
    74.0467      372.00000
    74.0729      337.00000
    74.0992      334.00000
    74.1255      332.00000
    74.1517      352.00000
    74.1780      348.00000
    74.2043      363.00000
    74.2305      329.00000
    74.2568      341.00000
    74.2830      374.00000
    74.3093      373.00000
    74.3356      327.00000
    74.3618      336.00000
    74.3881      358.00000
    74.4143      339.00000
    74.4406      332.00000
    74.4669      392.00000
    74.4931      308.00000
    74.5194      369.00000
    74.5456      343.00000
    74.5719      353.00000
    74.5982      365.00000
    74.6244      349.00000
    74.6507      351.00000
    74.6769      371.00000
    74.7032      399.00000
    74.7295      366.00000
    74.7557      375.00000
    74.7820      372.00000
    74.8082      341.00000
    74.8345      362.00000
    74.8608      344.00000
    74.8870      357.00000
    74.9133      357.00000
    74.9395      384.00000
    74.9658      366.00000
    74.9921      385.00000
    75.0183      313.00000
    75.0446      366.00000
    75.0708      359.00000
    75.0971      370.00000
    75.1234      435.00000
    75.1496      382.00000
    75.1759      365.00000
    75.2022      399.00000
    75.2284      360.00000
    75.2547      373.00000
    75.2809      401.00000
    75.3072      411.00000
    75.3335      395.00000
    75.3597      384.00000
    75.3860      421.00000
    75.4122      427.00000
    75.4385      426.00000
    75.4648      427.00000
    75.4910      423.00000
    75.5173      469.00000
    75.5435      502.00000
    75.5698      490.00000
    75.5961      548.00000
    75.6223      581.00000
    75.6486      554.00000
    75.6748      600.00000
    75.7011      563.00000
    75.7274      616.00000
    75.7536      625.00000
    75.7799      652.00000
    75.8061      629.00000
    75.8324      628.00000
    75.8587      668.00000
    75.8849      650.00000
    75.9112      662.00000
    75.9374      641.00000
    75.9637      649.00000
    75.9900      659.00000
    76.0162      628.00000
    76.0425      640.00000
    76.0687      656.00000
    76.0950      604.00000
    76.1213      549.00000
    76.1475      658.00000
    76.1738      668.00000
    76.2001      649.00000
    76.2263      643.00000
    76.2526      634.00000
    76.2788      687.00000
    76.3051      689.00000
    76.3314      672.00000
    76.3576      729.00000
    76.3839      707.00000
    76.4101      677.00000
    76.4364      701.00000
    76.4627      657.00000
    76.4889      666.00000
    76.5152      646.00000
    76.5414      648.00000
    76.5677      668.00000
    76.5940      623.00000
    76.6202      678.00000
    76.6465      579.00000
    76.6727      673.00000
    76.6990      638.00000
    76.7253      576.00000
    76.7515      571.00000
    76.7778      592.00000
    76.8040      574.00000
    76.8303      623.00000
    76.8566      592.00000
    76.8828      622.00000
    76.9091      629.00000
    76.9353      674.00000
    76.9616      615.00000
    76.9879      634.00000
    77.0141      706.00000
    77.0404      661.00000
    77.0667      696.00000
    77.0929      732.00000
    77.1192      772.00000
    77.1454      766.00000
    77.1717      812.00000
    77.1980      830.00000
    77.2242      857.00000
    77.2505      856.00000
    77.2767      918.00000
    77.3030      948.00000
    77.3293      920.00000
    77.3555      913.00000
    77.3818     1062.00000
    77.4080      986.00000
    77.4343     1006.00000
    77.4606     1014.00000
    77.4868     1009.00000
    77.5131     1029.00000
    77.5393     1015.00000
    77.5656     1017.00000
    77.5919      961.00000
    77.6181     1012.00000
    77.6444      993.00000
    77.6706      976.00000
    77.6969      987.00000
    77.7232      918.00000
    77.7494      926.00000
    77.7757      819.00000
    77.8019      855.00000
    77.8282      769.00000
    77.8545      795.00000
    77.8807      744.00000
    77.9070      793.00000
    77.9333      702.00000
    77.9595      653.00000
    77.9858      688.00000
    78.0120      668.00000
    78.0383      630.00000
    78.0646      640.00000
    78.0908      633.00000
    78.1171      580.00000
    78.1433      546.00000
    78.1696      567.00000
    78.1959      586.00000
    78.2221      520.00000
    78.2484      545.00000
    78.2746      548.00000
    78.3009      520.00000
    78.3272      521.00000
    78.3534      520.00000
    78.3797      551.00000
    78.4059      503.00000
    78.4322      538.00000
    78.4585      507.00000
    78.4847      530.00000
    78.5110      505.00000
    78.5372      529.00000
    78.5635      519.00000
    78.5898      526.00000
    78.6160      518.00000
    78.6423      528.00000
    78.6685      533.00000
    78.6948      451.00000
    78.7211      502.00000
    78.7473      526.00000
    78.7736      452.00000
    78.7999      496.00000
    78.8261      461.00000
    78.8524      425.00000
    78.8786      515.00000
    78.9049      416.00000
    78.9312      449.00000
    78.9574      421.00000
    78.9837      426.00000
    79.0099      428.00000
    79.0362      383.00000
    79.0625      383.00000
    79.0887      377.00000
    79.1150      392.00000
    79.1412      366.00000
    79.1675      420.00000
    79.1938      386.00000
    79.2200      363.00000
    79.2463      371.00000
    79.2725      364.00000
    79.2988      364.00000
    79.3251      367.00000
    79.3513      402.00000
    79.3776      353.00000
    79.4038      358.00000
    79.4301      356.00000
    79.4564      351.00000
    79.4826      372.00000
    79.5089      386.00000
    79.5351      341.00000
    79.5614      391.00000
    79.5877      332.00000
    79.6139      331.00000
    79.6402      329.00000
    79.6665      346.00000
    79.6927      329.00000
    79.7190      344.00000
    79.7452      333.00000
    79.7715      325.00000
    79.7978      353.00000
    79.8240      361.00000
    79.8503      362.00000
    79.8765      349.00000
    79.9028      341.00000
    79.9291      343.00000
    79.9553      295.00000
    79.9816      314.00000
    80.0078      336.00000
    80.0341      345.00000
    80.0604      330.00000
    80.0866      325.00000
    80.1129      367.00000
    80.1391      300.00000
    80.1654      332.00000
    80.1917      341.00000
    80.2179      353.00000
    80.2442      350.00000
    80.2704      342.00000
    80.2967      366.00000
    80.3230      318.00000
    80.3492      317.00000
    80.3755      307.00000
    80.4017      345.00000
    80.4280      342.00000
    80.4543      325.00000
    80.4805      378.00000
    80.5068      330.00000
    80.5331      357.00000
    80.5593      354.00000
    80.5856      355.00000
    80.6118      334.00000
    80.6381      350.00000
    80.6644      328.00000
    80.6906      340.00000
    80.7169      345.00000
    80.7431      341.00000
    80.7694      308.00000
    80.7957      333.00000
    80.8219      322.00000
    80.8482      366.00000
    80.8744      306.00000
    80.9007      327.00000
    80.9270      363.00000
    80.9532      343.00000
    80.9795      365.00000
    81.0057      334.00000
    81.0320      363.00000
    81.0583      329.00000
    81.0845      339.00000
    81.1108      329.00000
    81.1370      319.00000
    81.1633      354.00000
    81.1896      363.00000
    81.2158      349.00000
    81.2421      335.00000
    81.2683      367.00000
    81.2946      345.00000
    81.3209      371.00000
    81.3471      348.00000
    81.3734      318.00000
    81.3996      332.00000
    81.4259      354.00000
    81.4522      350.00000
    81.4784      366.00000
    81.5047      319.00000
    81.5310      362.00000
    81.5572      370.00000
    81.5835      381.00000
    81.6097      396.00000
    81.6360      353.00000
    81.6623      342.00000
    81.6885      356.00000
    81.7148      355.00000
    81.7410      423.00000
    81.7673      345.00000
    81.7936      411.00000
    81.8198      425.00000
    81.8461      393.00000
    81.8723      396.00000
    81.8986      418.00000
    81.9249      416.00000
    81.9511      403.00000
    81.9774      411.00000
    82.0036      436.00000
    82.0299      454.00000
    82.0562      462.00000
    82.0824      488.00000
    82.1087      487.00000
    82.1349      516.00000
    82.1612      531.00000
    82.1875      492.00000
    82.2137      549.00000
    82.2400      578.00000
    82.2662      567.00000
    82.2925      572.00000
    82.3188      574.00000
    82.3450      565.00000
    82.3713      576.00000
    82.3975      554.00000
    82.4238      482.00000
    82.4501      532.00000
    82.4763      535.00000
    82.5026      552.00000
    82.5288      520.00000
    82.5551      483.00000
    82.5814      522.00000
    82.6076      458.00000
    82.6339      467.00000
    82.6602      433.00000
    82.6864      474.00000
    82.7127      353.00000
    82.7389      436.00000
    82.7652      414.00000
    82.7915      425.00000
    82.8177      388.00000
    82.8440      359.00000
    82.8702      374.00000
    82.8965      382.00000
    82.9228      398.00000
    82.9490      371.00000
    82.9753      350.00000
    83.0015      355.00000
    83.0278      358.00000
    83.0541      374.00000
    83.0803      317.00000
    83.1066      334.00000
    83.1328      333.00000
    83.1591      334.00000
    83.1854      316.00000
    83.2116      353.00000
    83.2379      333.00000
    83.2641      352.00000
    83.2904      352.00000
    83.3167      352.00000
    83.3429      350.00000
    83.3692      335.00000
    83.3954      341.00000
    83.4217      364.00000
    83.4480      373.00000
    83.4742      318.00000
    83.5005      335.00000
    83.5267      344.00000
    83.5530      327.00000
    83.5793      392.00000
    83.6055      356.00000
    83.6318      332.00000
    83.6581      299.00000
    83.6843      313.00000
    83.7106      358.00000
    83.7368      340.00000
    83.7631      334.00000
    83.7894      330.00000
    83.8156      304.00000
    83.8419      316.00000
    83.8681      342.00000
    83.8944      337.00000
    83.9207      351.00000
    83.9469      348.00000
    83.9732      370.00000
    83.9994      347.00000
    84.0257      329.00000
    84.0520      316.00000
    84.0782      321.00000
    84.1045      315.00000
    84.1307      305.00000
    84.1570      344.00000
    84.1833      307.00000
    84.2095      341.00000
    84.2358      346.00000
    84.2620      325.00000
    84.2883      356.00000
    84.3146      347.00000
    84.3408      300.00000
    84.3671      316.00000
    84.3933      339.00000
    84.4196      342.00000
    84.4459      335.00000
    84.4721      347.00000
    84.4984      325.00000
    84.5247      357.00000
    84.5509      336.00000
    84.5772      346.00000
    84.6034      336.00000
    84.6297      376.00000
    84.6560      347.00000
    84.6822      367.00000
    84.7085      368.00000
    84.7347      386.00000
    84.7610      364.00000
    84.7873      359.00000
    84.8135      398.00000
    84.8398      360.00000
    84.8660      386.00000
    84.8923      369.00000
    84.9186      333.00000
    84.9448      369.00000
    84.9711      406.00000
    84.9973      397.00000
    85.0236      411.00000
    85.0499      386.00000
    85.0761      353.00000
    85.1024      387.00000
    85.1286      366.00000
    85.1549      414.00000
    85.1812      359.00000
    85.2074      374.00000
    85.2337      351.00000
    85.2599      379.00000
    85.2862      362.00000
    85.3125      372.00000
    85.3387      424.00000
    85.3650      343.00000
    85.3913      348.00000
    85.4175      358.00000
    85.4438      366.00000
    85.4700      385.00000
    85.4963      361.00000
    85.5226      363.00000
    85.5488      340.00000
    85.5751      373.00000
    85.6013      358.00000
    85.6276      361.00000
    85.6539      314.00000
    85.6801      327.00000
    85.7064      333.00000
    85.7326      355.00000
    85.7589      362.00000
    85.7852      370.00000
    85.8114      380.00000
    85.8377      343.00000
    85.8639      330.00000
    85.8902      346.00000
    85.9165      308.00000
    85.9427      335.00000
    85.9690      347.00000
    85.9952      380.00000
    86.0215      345.00000
    86.0478      329.00000
    86.0740      360.00000
    86.1003      330.00000
    86.1265      357.00000
    86.1528      327.00000
    86.1791      313.00000
    86.2053      339.00000
    86.2316      320.00000
    86.2579      357.00000
    86.2841      316.00000
    86.3104      335.00000
    86.3366      330.00000
    86.3629      365.00000
    86.3892      350.00000
    86.4154      327.00000
    86.4417      333.00000
    86.4679      344.00000
    86.4942      359.00000
    86.5205      342.00000
    86.5467      334.00000
    86.5730      312.00000
    86.5992      339.00000
    86.6255      329.00000
    86.6518      318.00000
    86.6780      373.00000
    86.7043      376.00000
    86.7305      316.00000
    86.7568      340.00000
    86.7831      330.00000
    86.8093      325.00000
    86.8356      296.00000
    86.8618      336.00000
    86.8881      340.00000
    86.9144      342.00000
    86.9406      335.00000
    86.9669      335.00000
    86.9931      320.00000
    87.0194      287.00000
    87.0457      340.00000
    87.0719      321.00000
    87.0982      326.00000
    87.1245      323.00000
    87.1507      308.00000
    87.1770      312.00000
    87.2032      354.00000
    87.2295      308.00000
    87.2558      327.00000
    87.2820      281.00000
    87.3083      346.00000
    87.3345      315.00000
    87.3608      337.00000
    87.3871      318.00000
    87.4133      340.00000
    87.4396      328.00000
    87.4658      308.00000
    87.4921      295.00000
    87.5184      368.00000
    87.5446      336.00000
    87.5709      342.00000
    87.5971      329.00000
    87.6234      349.00000
    87.6497      329.00000
    87.6759      364.00000
    87.7022      323.00000
    87.7284      342.00000
    87.7547      352.00000
    87.7810      348.00000
    87.8072      389.00000
    87.8335      355.00000
    87.8597      334.00000
    87.8860      347.00000
    87.9123      356.00000
    87.9385      334.00000
    87.9648      351.00000
    87.9911      351.00000
    88.0173      366.00000
    88.0436      332.00000
    88.0698      362.00000
    88.0961      383.00000
    88.1224      410.00000
    88.1486      405.00000
    88.1749      399.00000
    88.2011      395.00000
    88.2274      427.00000
    88.2537      410.00000
    88.2799      439.00000
    88.3062      454.00000
    88.3324      448.00000
    88.3587      468.00000
    88.3850      498.00000
    88.4112      480.00000
    88.4375      533.00000
    88.4637      473.00000
    88.4900      516.00000
    88.5163      546.00000
    88.5425      549.00000
    88.5688      566.00000
    88.5950      601.00000
    88.6213      591.00000
    88.6476      577.00000
    88.6738      622.00000
    88.7001      599.00000
    88.7263      623.00000
    88.7526      664.00000
    88.7789      649.00000
    88.8051      627.00000
    88.8314      609.00000
    88.8576      628.00000
    88.8839      601.00000
    88.9102      598.00000
    88.9364      597.00000
    88.9627      567.00000
    88.9890      566.00000
    89.0152      533.00000
    89.0415      550.00000
    89.0677      580.00000
    89.0940      550.00000
    89.1203      537.00000
    89.1465      476.00000
    89.1728      429.00000
    89.1990      450.00000
    89.2253      430.00000
    89.2516      389.00000
    89.2778      431.00000
    89.3041      402.00000
    89.3303      403.00000
    89.3566      405.00000
    89.3829      447.00000
    89.4091      430.00000
    89.4354      406.00000
    89.4616      388.00000
    89.4879      450.00000
    89.5142      383.00000
    89.5404      421.00000
    89.5667      402.00000
    89.5929      376.00000
    89.6192      380.00000
    89.6455      409.00000
    89.6717      409.00000
    89.6980      434.00000
    89.7242      424.00000
    89.7505      377.00000
    89.7768      352.00000
    89.8030      404.00000
    89.8293      383.00000
    89.8555      414.00000
    89.8818      415.00000
    89.9081      443.00000
    89.9343      478.00000
    89.9606      420.00000
    89.9868      425.00000
